#  /links/groups/borgwardt/Data/ms_diagnostics/validation/KSBL/encoded/3eac1e5b-eecb-4d00-9f34-f2c2109a82d4/fcc9d541-434a-4952-b6db-39cb98feab6d/0_F8/1/1SLin/fid
#  fcc9d541-434a-4952-b6db-39cb98feab6d
"mass.myspec..1..." "intensity.myspec..1..."
1959.40992097325 13300
1959.82574609406 13436
1960.24161528819 13587
1960.65752855771 13553
1961.07348590105 13535
1961.48948731924 13468
1961.9055328112 13449
1962.32162237799 13511
1962.73775601958 13245
1963.15393373438 12913
1963.57015552449 13543
1963.98642138778 13663
1964.40273132635 13233
1964.81908533912 13061
1965.23548342557 13281
1965.65192558672 13387
1966.06841182152 13525
1966.48494213099 13829
1966.90151651513 14468
1967.31813497234 15165
1967.73479750472 15266
1968.15150411067 16005
1968.56825479122 17089
1968.98504954532 17784
1969.401888374 18755
1969.81877127672 19768
1970.23569825295 21488
1970.65266930424 25700
1971.069684429 36945
1971.48674362774 47480
1971.90384690046 51786
1972.32099424714 55593
1972.73818566828 56416
1973.15542116335 56013
1973.57270073234 55273
1973.99002437523 52990
1974.40739209148 50700
1974.82480388266 47001
1975.24225974717 43151
1975.65975968552 39976
1976.07730369824 35722
1976.49489178424 32734
1976.91252394457 29761
1977.33020017869 27347
1977.74792048606 24625
1978.16568486824 22513
1978.58349332312 20237
1979.00134585279 18346
1979.41924245564 17227
1979.8371831322 16536
1980.25516788298 15587
1980.67319670744 14929
1981.09126960556 14641
1981.5093865768 13943
1981.9275476222 14325
1982.34575274175 15618
1982.76400193438 15993
1983.1822952006 16610
1983.60063254041 17218
1984.0190139543 17287
1984.43743944175 17677
1984.8559090022 17718
1985.27442263671 18155
1985.69298034472 18548
1986.11158212623 18401
1986.53022798175 18663
1986.9489179102 20154
1987.36765191211 23133
1987.78642998799 25493
1988.20525213729 27593
1988.62411836 29176
1989.04302865558 29018
1989.46198302507 28937
1989.88098146793 28053
1990.30002398414 26572
1990.71911057423 24842
1991.13824123711 22834
1991.55741597383 21339
1991.97663478332 19351
1992.39589766663 17526
1992.81520462321 16070
1993.23455565304 15225
1993.65395075611 14904
1994.07338993242 14506
1994.49287318247 13920
1994.91240050518 13469
1995.33197190162 13241
1995.75158737123 12727
1996.17124691346 12332
1996.59095052937 11971
1997.01069821841 11636
1997.43048998057 11844
1997.85032581636 11417
1998.27020572471 11294
1998.69012970613 11068
1999.11009776061 10904
1999.53010988867 10848
1999.95016608976 10544
2000.37026636387 10908
2000.79041071099 10655
2001.21059913109 10248
2001.63083162417 10232
2002.05110819075 9757
2002.47142882974 10061
2002.89179354219 10193
2003.31220232704 10187
2003.73265518532 11277
2004.1531521165 12308
2004.57369312055 12102
2004.99427819747 11872
2005.41490734723 12099
2005.83558057037 11786
2006.25629786632 11790
2006.67705923456 11393
2007.09786467612 10800
2007.51871418993 10317
2007.93960777703 9602
2008.36054543742 9638
2008.78152716948 10060
2009.20255297533 12107
2009.62362285336 15753
2010.04473680462 18039
2010.46589482856 20512
2010.88709692464 22316
2011.3083430939 22282
2011.7296333358 22185
2012.15096765033 21302
2012.57234603746 20209
2012.9937684972 18193
2013.41523503006 16975
2013.83674563495 15509
2014.25830031292 13940
2014.67989906345 12775
2015.10154188596 12202
2015.52322878153 11444
2015.94495974959 10553
2016.36673479067 9917
2016.78855390369 9906
2017.21041708917 9441
2017.63232434762 9098
2018.05427567797 9040
2018.47627108128 9187
2018.89831055698 8749
2019.32039410507 8505
2019.74252172553 8696
2020.16469341836 8283
2020.58690918406 8356
2021.00916902156 8532
2021.43147293138 8382
2021.85382091403 8655
2022.27621296898 8973
2022.6986490962 8848
2023.12112929515 8420
2023.54365356741 8766
2023.96622191138 9172
2024.38883432756 9148
2024.81149081648 8897
2025.23419137706 9077
2025.65693601035 9238
2026.07972471581 9725
2026.50255749342 10568
2026.92543434316 11051
2027.34835526502 11268
2027.77132025899 11438
2028.19432932559 11029
2028.61738246373 11031
2029.04047967447 11562
2029.46362095673 11626
2029.88680631156 11052
2030.31003573842 10643
2030.73330923728 10340
2031.15662680814 9960
2031.57998845098 10038
2032.00339416633 9703
2032.42684395363 9244
2032.85033781233 9074
2033.27387574349 9080
2033.69745774603 10010
2034.121083821 10140
2034.54475396839 10219
2034.96846818711 9938
2035.39222647769 9713
2035.81602884011 9973
2036.23987527489 9690
2036.66376578149 9218
2037.08770035935 8796
2037.51167900953 9112
2037.93570173148 8788
2038.35976852519 8353
2038.78387939064 8455
2039.20803432836 8026
2039.63223333725 7815
2040.05647641838 8202
2040.48076357067 8559
2040.90509479516 8496
2041.32947009132 8619
2041.75388945911 8771
2042.17835289854 9384
2042.60286040959 10541
2043.02741199224 11294
2043.45200764701 12149
2043.87664737336 12724
2044.30133117074 12655
2044.7260590402 12904
2045.15083098119 12997
2045.5756469937 12536
2046.00050707825 12227
2046.42541123376 11827
2046.85035946074 11488
2047.27535175919 12221
2047.70038812962 12743
2048.12546857148 12782
2048.55059308477 12753
2048.97576166947 12172
2049.40097432555 11841
2049.82623105302 11946
2050.25153185239 11599
2050.67687672257 11894
2051.10226566463 13038
2051.52769867747 15158
2051.95317576216 16799
2052.37869691814 18854
2052.80426214541 20527
2053.22987144394 20272
2053.65552481372 19560
2054.08122225475 18905
2054.50696376753 17479
2054.93274935099 16083
2055.35857900618 14266
2055.78445273256 13453
2056.2103705301 12774
2056.6363323988 11836
2057.06233833864 11278
2057.48838835014 10890
2057.91448243222 10792
2058.3406205854 11394
2058.7668028102 13456
2059.19302910607 14736
2059.619299473 17589
2060.04561391043 19650
2060.47197241997 19744
2060.89837499945 20077
2061.324821651 19458
2061.75131237354 18054
2062.17784716652 16600
2062.60442603099 15188
2063.03104896586 14410
2063.45771597221 13757
2063.88442705001 13028
2064.31118219764 11605
2064.73798141723 10458
2065.16482470716 9981
2065.59171206849 9849
2066.01864350012 9333
2066.44561900313 9319
2066.87263857696 9536
2067.29970222105 9663
2067.72680993701 9827
2068.1539617232 9533
2068.58115758016 9585
2069.00839750841 9845
2069.43568150685 9791
2069.86300957656 9819
2070.29038171696 10030
2070.71779792753 10316
2071.14525820984 11034
2071.57276256175 11406
2072.00031098538 11747
2072.42790347911 12123
2072.85554004401 12974
2073.28322067897 13142
2073.71094538506 13197
2074.13871416174 13137
2074.56652700898 13060
2074.99438392678 12924
2075.42228491511 12854
2075.85022997397 13207
2076.27821910387 12861
2076.70625230374 12142
2077.13432957462 12268
2077.56245091598 12164
2077.99061632725 11514
2078.41882580949 10860
2078.84707936217 11028
2079.27537698526 10065
2079.70371867928 9563
2080.13210444315 9161
2080.56053427793 9256
2080.98900818253 9292
2081.41752615801 9610
2081.84608820381 10223
2082.27469431993 10960
2082.7033445069 11866
2083.13203876306 12806
2083.56077709058 13340
2083.98955948836 14046
2084.41838595584 14083
2084.8472564941 14460
2085.27617110256 14455
2085.70512978123 13971
2086.13413253009 13336
2086.56317934913 12924
2086.99227023832 12847
2087.4214051982 12590
2087.85058422767 11891
2088.2798073278 11395
2088.70907449804 11287
2089.13838573836 11328
2089.56774104876 11523
2089.99714042922 11783
2090.42658387973 11144
2090.85607140028 10518
2091.28560299138 10058
2091.71517865195 10097
2092.14479838306 9847
2092.57446218468 9706
2093.00417005518 9848
2093.43392199672 9788
2093.86371800711 9805
2094.2935580885 9577
2094.72344223981 9200
2095.15337046046 9253
2095.58334275154 9494
2096.01335911194 9513
2096.44341954273 9153
2096.87352404337 9223
2097.30367261382 9359
2097.73386525463 9663
2098.16410196469 10116
2098.59438274508 10173
2099.02470759469 10068
2099.4550765146 10730
2099.88548950424 12553
2100.31594656361 14311
2100.7464476927 16345
2101.17699289148 18236
2101.60758215995 18561
2102.03821549863 18811
2102.46889290642 18381
2102.89961438439 18041
2103.330379932 17144
2103.76118954921 15941
2104.19204323603 14278
2104.62294099243 13387
2105.05388281895 12867
2105.48486871448 12143
2105.91589867956 11621
2106.34697271471 11279
2106.77809081937 11018
2107.20925299354 10248
2107.64045923665 10121
2108.07170955032 10103
2108.5030039329 10122
2108.93434238493 10056
2109.36572490694 10301
2109.79715149782 10551
2110.22862215865 10592
2110.66013688887 10323
2111.09169568846 10518
2111.52329855741 10529
2111.95494549572 10219
2112.3866365039 9602
2112.81837158085 9575
2113.25015072711 9619
2113.68197394321 9439
2114.11384122858 9749
2114.54575258322 9602
2114.9777080071 9466
2115.40970750022 10107
2115.84175106257 10279
2116.27383869412 10353
2116.70597039541 10391
2117.13814616533 10634
2117.57036600496 10371
2118.00262991429 10193
2118.43493789167 9808
2118.86728993871 9287
2119.29968605486 9259
2119.73212624066 9428
2120.16461049553 9373
2120.59713881893 9457
2121.02971121193 9538
2121.46232767342 9395
2121.89498820448 9234
2122.3276928051 9435
2122.76044147362 9218
2123.19323421222 8676
2123.62607101924 9024
2124.05895189576 9700
2124.49187684122 9758
2124.92484585507 9649
2125.35785893837 9229
2125.79091609057 8993
2126.22401731166 8973
2126.65716260217 8777
2127.09035196098 8585
2127.52358538919 8388
2127.95686288568 8633
2128.39018445153 8861
2128.82355008618 8715
2129.25695978961 9013
2129.69041356182 9177
2130.12391140279 9364
2130.55745331251 9177
2130.9910392915 9296
2131.42466933866 9362
2131.85834345507 9501
2132.29206164017 9784
2132.72582389395 9658
2133.15963021639 9306
2133.59348060747 9112
2134.02737506719 9290
2134.46131359552 8673
2134.89529619301 8751
2135.32932285909 10193
2135.76339359374 11318
2136.19750839696 12016
2136.63166726818 13111
2137.06587020903 14651
2137.50011721785 14620
2137.93440829518 13606
2138.36874344155 13191
2138.80312265585 12604
2139.23754593917 12442
2139.67201329093 11575
2140.10652471113 10570
2140.54108019975 10342
2140.97567975679 10156
2141.41032338276 9697
2141.84501107657 9317
2142.27974283929 9550
2142.71451867037 9807
2143.14933856923 9908
2143.58420253697 9953
2144.01911057302 10264
2144.45406267791 10737
2144.88905885054 11045
2145.32409909144 10777
2145.75918340114 9928
2146.19431177853 9703
2146.6294842247 9956
2147.06470073963 10122
2147.49996132166 10398
2147.93526597297 9876
2148.3706146919 9853
2148.806007479 9727
2149.24144433478 8967
2149.67692525814 8846
2150.11245025016 8927
2150.54801931029 8692
2150.9836324385 8610
2151.41928963479 8256
2151.85499089913 8295
2152.29073623207 8235
2152.72652563248 7966
2153.16235910147 7929
2153.59823663845 8129
2154.03415824288 8405
2154.47012391638 8966
2154.90613365674 9132
2155.34218746614 9309
2155.77828534293 9399
2156.21442728819 9784
2156.6506133008 9523
2157.08684338185 9688
2157.52311753078 9858
2157.95943574757 9710
2158.39579803221 10282
2158.83220438468 10676
2159.26865480497 10647
2159.70514929362 11162
2160.14168784951 11399
2160.57827047373 11213
2161.01489716572 11469
2161.45156792545 11750
2161.88828275292 11747
2162.32504164811 11788
2162.76184461102 12137
2163.19869164216 12577
2163.63558274044 12436
2164.07251790693 12163
2164.50949714107 11856
2164.94652044286 11514
2165.38358781226 11099
2165.82069924928 10125
2166.2578547539 9612
2166.69505432609 9565
2167.13229796641 9507
2167.56958567428 9281
2168.00691744968 8852
2168.44429329262 8790
2168.88171320252 8938
2169.31917718101 8479
2169.75668522644 8257
2170.19423733934 8395
2170.63183352025 8655
2171.06947376805 8724
2171.50715808382 8573
2171.94488646702 8854
2172.38265891761 9650
2172.82047543558 9713
2173.25833602093 10278
2173.69624067419 11043
2174.1341893948 11733
2174.57218218218 12087
2175.01021903743 12062
2175.44829995943 11755
2175.88642494982 11876
2176.32459400638 11793
2176.7628071313 10975
2177.20106432292 10794
2177.63936558233 11144
2178.0777109084 11340
2178.51610030222 10766
2178.95453376324 10427
2179.39301129143 11210
2179.83153288678 13104
2180.27009854928 15979
2180.70870827891 18790
2181.14736207622 21558
2181.58605994063 23602
2182.02480187159 23871
2182.46358787017 23596
2182.90241793581 21910
2183.34129206851 20193
2183.7802102688 18714
2184.219172535 16794
2184.65817886931 15042
2185.09722927007 14105
2185.53632373835 12969
2185.97546227361 12316
2186.41464487581 11933
2186.85387154496 11454
2187.29314228102 11473
2187.73245708455 11391
2188.17181595443 11225
2188.61121889173 10842
2189.05066589535 10608
2189.49015696638 10837
2189.92969210425 10561
2190.36927130895 10331
2190.80889458045 10276
2191.24856191931 10237
2191.6882733244 10304
2192.12802879681 10133
2192.56782833597 9869
2193.00767194133 9721
2193.44755961396 9507
2193.88749135331 9401
2194.32746715936 9226
2194.76748703265 9320
2195.20755097205 9327
2195.64765897867 9146
2196.08781105138 9264
2196.52800719127 9359
2196.96824739778 9304
2197.40853167088 9566
2197.84886001058 9621
2198.28923241685 9646
2198.72964889023 9413
2199.1701094296 9316
2199.61061403606 9419
2200.05116270904 10042
2200.49175544852 10253
2200.93239225449 9801
2201.37307312694 9854
2201.81379806584 9643
2202.25456707175 9723
2202.69538014354 9479
2203.1362372823 9561
2203.57713848691 9570
2204.01808375847 9155
2204.45907309697 9381
2204.90010650127 9186
2205.34118397191 9350
2205.7823055089 9233
2206.22347111276 8893
2206.66468078293 8949
2207.10593451883 8894
2207.54723232157 8682
2207.98857419058 8396
2208.42996012584 8285
2208.87139012789 8452
2209.31286419561 8239
2209.75438233009 8397
2210.19594453021 8369
2210.63755079707 8420
2211.0792011301 8662
2211.52089552928 8812
2211.9626339946 8808
2212.40441652605 8861
2212.84624312416 8503
2213.28811378837 7993
2213.7300285181 8371
2214.17198731447 9064
2214.61399017688 9206
2215.05603710534 9268
2215.49812809983 9877
2215.94026316032 10164
2216.38244228738 10007
2216.82466547986 9953
2217.26693273887 9928
2217.70924406328 10027
2218.15159945475 9907
2218.59399891159 9673
2219.03644243434 9415
2219.478930023 9681
2219.92146167754 9143
2220.36403739851 9182
2220.80665718535 9366
2221.24932103747 9150
2221.69202895653 8539
2222.1347809403 8388
2222.57757699099 8617
2223.0204171069 8840
2223.46330128859 8988
2223.9062295366 9146
2224.3492018498 9576
2224.79221822929 9558
2225.23527867506 9610
2225.67838318542 9554
2226.12153176258 8984
2226.56472440486 8888
2227.00796111281 8827
2227.45124188696 8576
2227.89456672619 8392
2228.33793563215 8068
2228.78134860261 8042
2229.22480563922 7973
2229.66830674196 8494
2230.11185190971 8459
2230.55544114357 8485
2230.99907444241 8662
2231.44275180733 9267
2231.88647323776 9342
2232.33023873312 9096
2232.77404829509 9349
2233.2179019214 9239
2233.66179961428 9166
2234.1057413726 9566
2234.54972719579 9808
2234.99375708495 9533
2235.43783103894 9555
2235.88194905944 9853
2236.32611114418 10390
2236.7703172954 11148
2237.2145675114 11158
2237.65886179273 11384
2238.10320013993 11897
2238.54758255243 12325
2238.99200903021 12047
2239.43647957326 11641
2239.88099418157 11486
2240.32555285512 11551
2240.7701555939 11066
2241.21480239846 10472
2241.65949326821 10593
2242.10422820259 10252
2242.54900720271 9665
2242.99383026798 9313
2243.4386973984 9313
2243.88360859451 9557
2244.32856385517 9340
2244.77356318094 9396
2245.21860657236 8968
2245.66369402885 9145
2246.1088255504 9071
2246.55400113644 8907
2246.99922078863 8895
2247.44448450528 8672
2247.88979228693 8466
2248.33514413413 8281
2248.78054004575 8268
2249.2259800229 7936
2249.67146406499 8090
2250.11699217201 8338
2250.56256434452 8168
2251.00818058137 8202
2251.45384088312 8114
2251.89954524974 8081
2252.34529368179 8162
2252.79108617869 8177
2253.23692274042 8431
2253.68280336698 8804
2254.12872805835 8586
2254.57469681507 8296
2255.02070963601 8007
2255.46676652172 8057
2255.91286747274 8337
2256.3590124885 7869
2256.80520156898 8005
2257.25143471418 8198
2257.69771192406 8375
2258.1440331992 8562
2258.59039853844 8783
2259.0368079429 9048
2259.48326141143 9062
2259.92975894515 9086
2260.37630054349 8884
2260.82288620642 8686
2261.26951593394 9007
2261.71618972603 9049
2262.16290758323 8651
2262.60966950498 8905
2263.05647549069 8691
2263.50332554205 8370
2263.95021965678 8485
2264.39715783712 8791
2264.84414008136 8879
2265.29116639007 8293
2265.73823676379 8303
2266.18535120137 8379
2266.63250970393 7983
2267.07971227089 7787
2267.52695890224 8120
2267.97424959796 8154
2268.42158435805 7916
2268.86896318304 8302
2269.31638607237 8482
2269.76385302545 8603
2270.21136404339 8656
2270.65891912507 8450
2271.10651827215 8690
2271.55416148292 8794
2272.00184875795 8693
2272.44958009777 8378
2272.89735550124 8440
2273.34517496949 8530
2273.79303850193 8647
2274.24094609855 8471
2274.68889775933 8294
2275.13689348426 8146
2275.58493327332 8068
2276.03301712651 8373
2276.48114504437 8109
2276.92931702633 7966
2277.37753307236 7465
2277.82579318246 7503
2278.27409735661 7727
2278.7224455948 7873
2279.17083789758 7727
2279.6192742638 7559
2280.06775469459 7158
2280.51627918879 7119
2280.96484774752 7069
2281.41346037077 7291
2281.86211705683 7627
2282.31081780795 7966
2282.75956262242 8071
2283.20835150134 8330
2283.65718444415 8468
2284.10606145027 8295
2284.5549825208 7872
2285.00394765518 7879
2285.45295685339 7826
2285.90201011597 7951
2286.35110744179 7600
2286.80024883196 7453
2287.24943428534 7645
2287.69866380303 7668
2288.14793738448 7597
2288.59725502965 7528
2289.0466167391 7788
2289.49602251169 7889
2289.94547234797 7614
2290.39496624849 7548
2290.84450421266 7552
2291.29408624048 7623
2291.74371233137 7381
2292.19338248701 7856
2292.64309670568 8366
2293.09285498795 8071
2293.54265733435 7576
2293.99250374375 7627
2294.44239421727 7848
2294.89232875432 8085
2295.34230735488 7663
2295.79233001952 7299
2296.24239674652 7494
2296.69250753813 7694
2297.14266239264 7445
2297.59286131116 7546
2298.04310429312 7818
2298.49339133849 7579
2298.94372244728 7509
2299.39409761946 7635
2299.84451685559 7610
2300.29498015451 7117
2300.74548751735 7206
2301.19603894353 7385
2301.64663443247 7415
2302.09727398528 7856
2302.54795760196 8430
2302.99868528135 8328
2303.449457024 8155
2303.90027282991 8472
2304.35113269963 8548
2304.80203663257 8447
2305.25298462873 8269
2305.70397668808 8293
2306.15501281061 8277
2306.60609299632 8139
2307.05721724574 7883
2307.50838555774 8165
2307.95959793344 8236
2308.41085437225 7889
2308.86215487416 7837
2309.31349943915 7880
2309.76488806721 7884
2310.2163207589 8310
2310.66779751307 8449
2311.11931833083 8379
2311.57088321161 8466
2312.02249215482 8322
2312.47414516158 8011
2312.92584223132 7809
2313.37758336459 7576
2313.82936856023 7850
2314.28119781937 8097
2314.73307114086 7833
2315.18498852583 7823
2315.63694997368 7883
2316.08895548441 7800
2316.541005058 7806
2316.993098695 7781
2317.44523639427 7662
2317.89741815693 7560
2318.34964398182 7739
2318.80191387007 7833
2319.2542278211 8124
2319.7065858349 8248
2320.15898791201 8576
2320.61143405129 8877
2321.06392425328 9819
2321.51645851856 9928
2321.96903684653 9771
2322.42165923717 9470
2322.87432568992 9449
2323.32703620645 9347
2323.77979078505 8759
2324.23258942627 8646
2324.68543213067 8187
2325.13831889767 8480
2325.59124972725 8166
2326.04422461939 8116
2326.49724357409 7836
2326.95030659133 7653
2327.40341367109 7450
2327.85656481393 7410
2328.30976001927 7537
2328.76299928652 7558
2329.21628261681 7395
2329.66961000956 7306
2330.12298146474 7446
2330.57639698293 7431
2331.02985656295 7431
2331.48336020538 7649
2331.93690791076 7761
2332.39049967851 7692
2332.84413550862 7504
2333.29781540107 7572
2333.75153935585 7511
2334.20530737295 7426
2334.65911945291 7492
2335.11297559517 7408
2335.56687579912 7279
2336.02082006591 7565
2336.47480839493 7519
2336.9288407862 7716
2337.38291724024 7915
2337.83703775592 8169
2338.29120233379 8436
2338.74541097441 8623
2339.19966367718 8109
2339.65396044153 7684
2340.10830126916 7719
2340.56268615833 7678
2341.01711510961 7908
2341.47158812355 7984
2341.926105199 8238
2342.38066633708 8377
2342.83527153721 8282
2343.28992079937 8468
2343.74461412355 8299
