#  /links/groups/borgwardt/Data/ms_diagnostics/validation/KSBL/encoded/e02b45bf-b6d6-4bc6-be9f-1962ff8cf2d6/fe7fe937-071a-4e21-8745-263a3e187923/0_D12/1/1SLin/fid
#  fe7fe937-071a-4e21-8745-263a3e187923
"mass.myspec..1..." "intensity.myspec..1..."
1962.06245893379 12601
1962.47886483991 12435
1962.8953148457 12484
1963.31180895114 12765
1963.72834715649 13235
1964.14492946116 13936
1964.56155586539 14093
1964.97822636946 14007
1965.39494097305 13790
1965.81169967585 14842
1966.2285024784 15209
1966.64534938067 15688
1967.06224038208 16899
1967.47917548316 18113
1967.89615468332 19344
1968.31317798281 19870
1968.7302453819 20799
1969.14735688028 24975
1969.56451247791 34744
1969.98171217478 44835
1970.39895597085 48410
1970.81624386638 51098
1971.23357586079 51923
1971.65095195432 50498
1972.06837214724 49042
1972.48583643923 46367
1972.90334483028 43166
1973.32089732034 38948
1973.7384939094 34565
1974.15613459743 30986
1974.57381938469 27495
1974.99154827059 24397
1975.40932125566 20764
1975.82713833931 18326
1976.24499952209 16518
1976.66290480367 14792
1977.08085418405 13778
1977.49884766347 13817
1977.91688524134 13803
1978.33496691821 13102
1978.75309269347 12777
1979.17126256767 12811
1979.58947654051 12831
1980.00773461195 13219
1980.42603678168 13320
1980.84438305053 14300
1981.26277341762 14740
1981.6812078835 15636
1982.09968644756 16643
1982.51820911036 16475
1982.93677587158 16460
1983.35538673119 16500
1983.77404168917 16216
1984.19274074549 15979
1984.61148390042 15749
1985.03027115334 16246
1985.44910250482 17842
1985.86797795425 20601
1986.28689750218 21828
1986.70586114829 23163
1987.12486889256 24209
1987.54392073496 23907
1987.96301667576 22952
1988.38215671435 21409
1988.80134085127 20025
1989.22056908623 18974
1989.63984141891 17032
1990.05915785013 15587
1990.47851837901 14489
1990.89792300582 13970
1991.31737173053 13791
1991.73686455339 14913
1992.15640147381 15850
1992.57598249233 16205
1992.99560760865 16686
1993.41527682273 15945
1993.83499013456 15590
1994.25474754438 14693
1994.67454905161 13713
1995.0943946565 14115
1995.51428435931 13300
1995.93421815972 12753
1996.35419605772 12257
1996.77421805328 11965
1997.19428414637 12118
1997.61439433697 11760
1998.03454862532 11868
1998.45474701085 11806
1998.87498949408 12286
1999.29527607472 12426
1999.71560675273 11962
2000.13598152809 11684
2000.55640040077 11383
2000.97686337103 12401
2001.39737043827 12486
2001.81792160304 12660
2002.23851686474 13213
2002.65915622392 13454
2003.07983968055 13693
2003.50056723403 13488
2003.92133888463 13200
2004.34215463231 12334
2004.76301447733 11752
2005.18391841939 11720
2005.60486645845 11254
2006.02585859422 11497
2006.4468948275 11593
2006.86797515743 11393
2007.28909958427 11427
2007.71026810798 13392
2008.13148072882 16726
2008.55273744649 17706
2008.97403826096 19160
2009.3953831722 19638
2009.81677218019 19160
2010.23820528518 18283
2010.65968248658 17008
2011.08120378493 16300
2011.50276917963 15256
2011.92437867124 14278
2012.34603225944 13104
2012.76772994448 12282
2013.18947172549 12129
2013.61125760358 11706
2014.03308757815 11664
2014.4549616489 11171
2014.87687981636 10972
2015.29884208023 10893
2015.72084844048 10435
2016.14289889737 10344
2016.56499345029 9878
2016.98713209952 9847
2017.40931484531 9733
2017.83154168735 10178
2018.25381262561 10304
2018.67612765978 10023
2019.09848679069 10361
2019.52089001746 10163
2019.94333734063 10246
2020.36582875961 10405
2020.78836427494 10493
2021.21094388631 10017
2021.63356759369 10107
2022.05623539735 9759
2022.47894729639 9742
2022.90170329194 10118
2023.32450338339 10298
2023.74734757073 10581
2024.17023585364 11346
2024.59316823267 11714
2025.01614470778 11996
2025.43916527838 12579
2025.86222994474 12507
2026.28533870711 13056
2026.70849156518 13023
2027.13168851891 12730
2027.5549295683 12431
2027.9782147133 12063
2028.4015439539 11992
2028.82491729036 11928
2029.24833472235 12189
2029.67179624958 11481
2030.09530187258 11570
2030.51885159104 11146
2030.94244540494 10888
2031.36608331425 10915
2031.78976531924 11482
2032.21349141958 12442
2032.63726161525 12739
2033.06107590623 12472
2033.48493429221 12174
2033.90883677372 12317
2034.33278335075 12313
2034.75677402298 12036
2035.1808087901 11821
2035.60488765265 11134
2036.02901061033 10483
2036.4531776631 9916
2036.87738881094 10324
2037.30164405383 10691
2037.72594339203 10673
2038.15028682521 10512
2038.57467435337 10322
2038.99910597617 10751
2039.42358169418 10793
2039.84810150736 11066
2040.27266541511 11483
2040.6972734177 11709
2041.12192551538 12644
2041.54662170785 13342
2041.97136199508 14212
2042.39614637703 14346
2042.82097485398 13657
2043.24584742531 13530
2043.67076409159 13067
2044.09572485249 12535
2044.5207297077 12454
2044.94577865778 12436
2045.37087170269 12103
2045.79600884183 11355
2046.22119007547 11036
2046.64641540386 11250
2047.0716848267 11098
2047.49699834395 11143
2047.92235595559 11831
2048.3477576616 12339
2048.77320346223 12115
2049.19869335689 13144
2049.62422734612 15902
2050.0498054296 20346
2050.47542760732 22904
2050.90109387925 23694
2051.32680424565 23865
2051.75255870591 22726
2052.1783572603 22464
2052.60419990909 20392
2053.03008665194 18016
2053.45601748885 16026
2053.88199241978 14622
2054.308011445 13455
2054.73407456419 12693
2055.16018177703 12540
2055.58633308409 12308
2056.01252848503 12192
2056.43876797984 11916
2056.86505156879 12516
2057.29137925125 15234
2057.71775102751 16633
2058.14416689781 17733
2058.57062686185 18974
2058.9971309196 18228
2059.42367907104 17904
2059.85027131642 16606
2060.27690765543 15699
2060.70358808804 15054
2061.13031261395 14347
2061.5570812337 13434
2061.98389394697 12935
2062.41075075403 13200
2062.83765165428 12566
2063.26459664827 12076
2063.69158573567 11855
2064.11861891647 11821
2064.54569619065 12033
2064.97281755816 11909
2065.39998301928 11700
2065.8271925734 11827
2066.25444622108 11921
2066.68174396199 11567
2067.10908579612 11561
2067.53647172343 11519
2067.96390174419 11224
2068.3913758578 11730
2068.8188940648 11819
2069.24645636489 12532
2069.67406275803 12835
2070.1017132442 12542
2070.52940782337 13239
2070.95714649581 13292
2071.3849292612 13575
2071.81275611951 13601
2072.24062707043 13820
2072.6685421148 14422
2073.09650125173 14494
2073.52450448177 14978
2073.95255180432 14798
2074.38064321991 14528
2074.80877872826 14327
2075.23695832931 14510
2075.66518202306 14508
2076.09344980975 13223
2076.52176168909 12531
2076.95011766074 12218
2077.37851772556 12023
2077.80696188236 11604
2078.23545013226 11411
2078.66398247439 11351
2079.09255890928 11212
2079.52117943634 12021
2079.94984405611 13000
2080.37855276858 13847
2080.80730557313 15695
2081.23610247002 18615
2081.66494345954 20687
2082.09382854134 21824
2082.52275771542 22855
2082.95173098174 21597
2083.38074834028 21047
2083.80980979101 20364
2084.2389153342 19407
2084.66806496952 18057
2085.09725869667 16810
2085.52649651649 16236
2085.95577842807 15216
2086.38510443198 14608
2086.81447452761 14396
2087.24388871551 13891
2087.67334699537 14066
2088.10284936716 13469
2088.53239583085 13321
2088.96198638642 13477
2089.39162103413 13140
2089.82129977367 12666
2090.251022605 12620
2090.68078952811 12565
2091.11060054297 12068
2091.54045564983 11926
2091.9703548481 11814
2092.40029813833 12057
2092.8302855202 12321
2093.26031699369 11748
2093.69039255876 12231
2094.1205122157 11942
2094.55067596387 11347
2094.98088380385 11150
2095.41113573532 11422
2095.84143175824 11660
2096.27177187259 12065
2096.70215607865 12464
2097.13258437608 13057
2097.56305676487 13681
2097.99357324498 15153
2098.4241338164 17912
2098.85473847909 20084
2099.28538723333 21540
2099.71608007849 22334
2100.14681701515 22104
2100.57759804297 22060
2101.00842316194 20578
2101.43929237232 18723
2101.8702056735 17119
2102.30116306604 15929
2102.73216454962 14801
2103.16321012421 13752
2103.59429978979 12872
2104.02543354633 12139
2104.4566113941 12541
2104.88783333278 12422
2105.31909936234 12193
2105.75040948276 12074
2106.18176369401 11385
2106.61316199635 11426
2107.04460438918 11409
2107.47609087306 11756
2107.90762144766 11558
2108.33919611296 11676
2108.77081486923 11368
2109.20247771585 11040
2109.63418465339 11452
2110.06593568152 11604
2110.49773080022 11308
2110.92957000946 10921
2111.36145330922 10622
2111.79338069976 11234
2112.22535218077 11416
2112.65736775221 11902
2113.08942741377 11987
2113.52153116631 12060
2113.95367900891 12538
2114.38587094214 12604
2114.81810696567 12731
2115.25038707949 12263
2115.68271128356 12525
2116.11507957786 12376
2116.54749196266 12032
2116.97994843733 11670
2117.41244900246 11234
2117.84499365799 11088
2118.27758240334 10999
2118.71021523875 11039
2119.14289216451 11109
2119.57561318028 11278
2120.00837828604 11561
2120.44118748178 11875
2120.87404076745 11907
2121.30693814333 12365
2121.73987960881 12631
2122.17286516444 12581
2122.60589480991 12281
2123.03896854519 12069
2123.47208637055 11872
2123.90524828566 11661
2124.33845429021 11375
2124.77170438476 11385
2125.20499856899 10918
2125.63833684317 11015
2126.07171920668 10644
2126.50514566008 10488
2126.93861620306 10971
2127.37213083558 11000
2127.80568955763 10936
2128.23929236918 10583
2128.67293927048 10666
2129.10663026123 10634
2129.5403653414 10950
2129.97414451096 10820
2130.40796776989 10522
2130.84183511844 10771
2131.27574655631 10831
2131.70970208347 10925
2132.1437016996 10939
2132.57774540554 11041
2133.0118332004 10818
2133.44596508473 10759
2133.88014105823 11032
2134.31436112085 11527
2134.74862527257 11867
2135.18293351367 11889
2135.61728584352 12009
2136.05168226269 11504
2136.48612277086 11308
2136.920607368 11862
2137.35513605409 11709
2137.7897088291 10990
2138.2243256933 11619
2138.65898664636 11805
2139.09369168857 11066
2139.52844081899 10479
2139.9632340388 10528
2140.39807134737 10306
2140.83295274468 10461
2141.2678782304 10684
2141.70284780539 11145
2142.13786146876 10793
2142.57291922104 10532
2143.00802106194 10758
2143.44316699112 10911
2143.87835700944 10580
2144.31359111599 10869
2144.74886931134 11041
2145.18419159488 10628
2145.61955796715 10119
2146.05496842785 9927
2146.49042297724 9557
2146.92592161471 9434
2147.36146434052 9584
2147.79705115494 9615
2148.23268205795 9501
2148.66835704893 9400
2149.10407612816 9474
2149.53983929589 9762
2149.9756465518 9809
2150.41149789588 9854
2150.8473933281 10243
2151.28333284842 10604
2151.71931645712 10373
2152.15534415388 10415
2152.59141593837 10937
2153.02753181146 10899
2153.46369177223 10546
2153.89989582125 11327
2154.33614395819 11940
2154.77243618274 12317
2155.20877249575 11523
2155.64515289632 11709
2156.081577385 11977
2156.51804596118 11758
2156.95455862542 11193
2157.39111537741 11571
2157.8277162174 11897
2158.2643611448 11674
2158.70105016015 11939
2159.13778326314 11849
2159.57456045374 11658
2160.01138173193 11941
2160.44824709768 11888
2160.88515655126 11873
2161.32211009234 11887
2161.75910772091 12329
2162.19614943692 12368
2162.63323524067 12351
2163.07036513181 12317
2163.50753911034 11815
2163.94475717591 11764
2164.38201932941 11245
2164.8193255699 11103
2165.25667589796 10802
2165.69407031327 10793
2166.13150881579 10775
2166.56899140551 10601
2167.00651808269 10241
2167.44408884702 10739
2167.88170369816 11017
2168.31936263668 10730
2168.75706566257 10777
2169.19481277519 10597
2169.63260397483 10565
2170.07043926174 11350
2170.50831863561 11571
2170.94624209671 11990
2171.38420964442 12574
2171.8222212793 13055
2172.26027700104 13314
2172.6983768096 13557
2173.13652070496 13501
2173.5747086871 13322
2174.01294075629 12982
2174.45121691219 12900
2174.88953715479 13419
2175.32790148406 12972
2175.76630990027 12622
2176.2047624031 11939
2176.64325899252 11952
2177.0817996685 12519
2177.52038443102 13083
2177.95901328006 14747
2178.39768621588 17987
2178.83640323816 22631
2179.27516434687 25834
2179.71396954199 27702
2180.15281882379 27387
2180.59171219195 26267
2181.03064964613 24872
2181.46963118692 23245
2181.90865681429 21561
2182.3477265276 19261
2182.78684032744 16802
2183.22599821348 15068
2183.66520018569 13885
2184.10444624434 12837
2184.54373638882 12207
2184.98307061968 11896
2185.42244893662 12107
2185.8618713396 12509
2186.30133782889 12483
2186.74084840387 12468
2187.18040306511 12236
2187.62000181229 11987
2188.05964464538 12443
2188.49933156465 12290
2188.93906256948 12086
2189.37883766045 12044
2189.81865683722 11686
2190.25852009977 11745
2190.69842744807 11644
2191.1383788824 12006
2191.57837440243 12120
2192.01841400813 11705
2192.45849769948 11112
2192.89862547676 10554
2193.33879733963 10376
2193.77901328807 11075
2194.21927332206 11207
2194.65957744156 10864
2195.09992564686 10488
2195.54031793762 10465
2195.98075431382 11090
2196.42123477514 11594
2196.86175932244 11622
2197.3023279551 12042
2197.74294067309 11984
2198.1835974761 12161
2198.62429836469 12191
2199.06504333883 12359
2199.50583239821 12752
2199.94666554278 12769
2200.38754277254 12812
2200.82846408745 12557
2201.26942948778 12327
2201.71043897291 12235
2202.15149254342 12281
2202.59259019897 12082
2203.03373193984 12410
2203.47491776541 12031
2203.91614767624 11129
2204.35742167202 10493
2204.79873975272 10396
2205.2401019186 10973
2205.68150816935 10694
2206.12295850463 10317
2206.56445292503 10179
2207.00599143051 10226
2207.44757402045 10681
2207.88920069543 10701
2208.33087145511 10527
2208.77258629947 10354
2209.21434522849 10128
2209.65614824213 9844
2210.09799534068 9956
2210.5398865241 9934
2210.98182179178 10516
2211.42380114427 10821
2211.86582458097 11268
2212.30789210243 11586
2212.75000370834 11569
2213.19215939867 12394
2213.6343591734 12708
2214.07660303279 13792
2214.51889097652 14853
2214.96122300486 15690
2215.40359911719 16499
2215.84601931379 16763
2216.28848359492 16447
2216.73099196056 15665
2217.17354441009 15165
2217.61614094377 13800
2218.05878156188 13085
2218.5014662641 12588
2218.9441950504 12028
2219.38696792075 11942
2219.82978487542 11534
2220.2726459141 11474
2220.71555103675 10974
2221.15850024335 10966
2221.60149353387 10825
2222.04453090859 10654
2222.48761236718 10680
2222.93073790991 10737
2223.37390753586 10316
2223.8171212462 10403
2224.2603790403 10873
2224.70368091815 10926
2225.1470268797 10718
2225.59041692524 10782
2226.03385105415 10596
2226.47732926699 10626
2226.92085156343 10700
2227.36441794376 10334
2227.80802840734 10476
2228.25168295475 10665
2228.69538158567 10825
2229.13912430006 10881
2229.58291109821 10509
2230.02674197978 10105
2230.47061694475 10271
2230.91453599279 10520
2231.35849912478 10298
2231.80250634009 10522
2232.24655763869 10637
2232.69065302026 10906
2233.13479248537 11114
2233.578976034 11671
2234.02320366581 12763
2234.4674753808 13756
2234.91179117891 13939
2235.35615106014 14519
2235.80055502476 14702
2236.24500307243 14681
2236.68949520313 13966
2237.13403141685 13366
2237.57861171384 13181
2238.02323609378 12371
2238.46790455636 12187
2238.91261710213 11686
2239.35737373109 11623
2239.80217444289 10850
2240.24701923751 10670
2240.69190811463 11167
2241.13684107512 10618
2241.58181811836 10093
2242.02683924432 10207
2242.47190445267 10044
2242.91701374398 9880
2243.36216711823 10196
2243.8073645751 10007
2244.25260611426 10173
2244.69789173658 10136
2245.14322144113 10193
2245.5885952285 10270
2246.03401309834 10070
2246.47947505065 9516
2246.92498108538 9280
2247.37053120282 9554
2247.81612540264 9504
2248.26176368451 9734
2248.70744604931 9233
2249.1531724961 9090
2249.59894302547 8914
2250.04475763709 9492
2250.49061633093 10112
2250.93651910697 10013
2251.38246596547 9958
2251.82845690612 10202
2252.27449192889 10562
2252.72057103374 10495
2253.16669422096 9997
2253.61286149022 9408
2254.05907284119 9368
2254.50532827475 9732
2254.95162778997 9773
2255.39797138742 9766
2255.84435906678 9680
2256.29079082802 10082
2256.73726667142 10101
2257.18378659635 10120
2257.63035060338 10225
2258.07695869218 10149
2258.52361086304 9742
2258.97030711532 9223
2259.4170474496 9175
2259.86383186555 8924
2260.31066036315 9151
2260.75753294267 9282
2261.20444960378 9262
2261.65141034646 9249
2262.09841517068 9260
2262.54546407672 9389
2262.99255706395 9181
2263.43969413324 8871
2263.88687528336 9200
2264.3341005155 9897
2264.78136982902 9475
2265.2286832239 8712
2265.67604069981 8736
2266.12344225763 9590
2266.57088789673 10057
2267.01837761708 10498
2267.46591141866 10593
2267.91348930144 10293
2268.3611112654 10418
2268.8087773108 10388
2269.25648743763 9995
2269.70424164496 10061
2270.15203993395 9926
2270.59988230399 10254
2271.04776875505 9983
2271.4956992871 9744
2271.94367390012 9787
2272.39169259438 9924
2272.83975536955 9487
2273.28786222591 9551
2273.73601316283 9976
2274.18420818088 9769
2274.63244727975 9246
2275.0807304594 9502
2275.5290577198 9431
2275.97742906123 9322
2276.42584448337 9432
2276.87430398619 9014
2277.32280756966 9033
2277.77135523406 8822
2278.21994697905 9115
2278.66858280462 9653
2279.11726271074 9638
2279.56598669768 9730
2280.01475476511 9565
2280.46356691301 9614
2280.91242314136 9839
2281.36132345012 9689
2281.81026783957 9847
2282.25925630939 9879
2282.70828885985 9710
2283.15736549031 9583
2283.60648620137 9692
2284.05565099268 9803
2284.50485986423 9882
2284.95411281628 9773
2285.40340984822 9432
2285.85275096091 9488
2286.30213615343 9680
2286.75156542636 9721
2287.20103877905 9532
2287.6505562121 9413
2288.10011772518 9134
2288.54972331855 8666
2288.99937299159 8503
2289.44906674489 8596
2289.8988045784 8617
2290.3485864915 8397
2290.79841248478 8595
2291.24828255789 9358
2291.69819671082 9647
2292.14815494384 9365
2292.59815725662 9624
2293.04820364883 9515
2293.49829412106 9383
2293.94842867327 9321
2294.39860730514 9427
2294.84883001634 9483
2295.29909680775 9308
2295.74940767844 9068
2296.19976262898 9203
2296.65016165905 9305
2297.10060476862 9391
2297.55109195766 9022
2298.00162322646 8969
2298.45219857468 9253
2298.90281800229 9005
2299.35348150958 9430
2299.80418909621 9810
2300.25494076215 9648
2300.70573650709 9869
2301.15657633189 9906
2301.60746023594 10158
2302.0583882192 10513
2302.50936028164 10881
2302.96037642325 11310
2303.41143664429 10845
2303.86254094444 10388
2304.31368932367 10417
2304.76488178196 10351
2305.21611831958 9679
2305.66739893621 9119
2306.11872363212 8763
2306.57009240667 9327
2307.02150526045 9805
2307.47296219313 9965
2307.92446320468 9933
2308.37600829539 10158
2308.82759746461 10743
2309.27923071293 10360
2309.73090804032 9965
2310.18262944614 10102
2310.63439493099 10288
2311.08620449453 10110
2311.53805813673 9735
2311.98995585787 9178
2312.44189765732 9459
2312.89388353565 9765
2313.34591349285 10006
2313.79798752828 9711
2314.25010564252 9309
2314.70226783524 9777
2315.15447410641 9517
2315.60672445632 9475
2316.05901888462 9388
2316.5113573913 9467
2316.96373997633 9671
2317.41616663999 9404
2317.86863738195 9230
2318.32115220218 10060
2318.77371110065 11539
2319.22631407764 12499
2319.67896113283 12725
2320.13165226618 12206
2320.58438747767 12023
2321.03716676758 11640
2321.48999013558 10967
2321.94285758164 10599
2322.39576910574 10286
2322.84872470815 10104
2323.30172438854 9979
2323.7547681472 9494
2324.20785598348 9393
2324.66098789797 9587
2325.11416389033 9089
2325.56738396055 9604
2326.02064810891 9448
2326.47395633475 8789
2326.92730863868 9054
2327.38070502066 9338
2327.83414548035 9175
2328.28763001744 9023
2328.74115863251 9570
2329.19473132552 9972
2329.64834809584 9676
2330.10200894406 9359
2330.55571386984 9317
2331.00946287347 9138
2331.46325595461 9034
2331.91709311323 8818
2332.37097434901 8806
2332.82489966284 9219
2333.27886905407 8910
2333.73288252268 8630
2334.18694006865 8456
2334.64104169194 8991
2335.09518739285 9099
2335.54937717103 9196
2336.00361102646 8741
2336.45788895942 8626
2336.91221096958 8947
2337.36657705692 9170
2337.8209872217 9086
2338.2754414633 9158
2338.7299397823 9186
2339.18448217836 9144
2339.63906865177 8817
2340.09369920189 9086
2340.54837382931 8875
2341.00309253399 8887
